 C22H10N2O5 Density=1.43 Thickness=0.1 microns
 Photon Energy (eV), Transmission
    150.00      0.81504    
    152.00      0.81986    
    154.00      0.82450    
    156.00      0.82898    
    158.00      0.83330    
    160.00      0.83748    
    162.00      0.84152    
    164.00      0.84544    
    166.00      0.84923    
    168.00      0.85290    
    170.00      0.85644    
    172.00      0.85987    
    174.00      0.86318    
    176.00      0.86638    
    178.00      0.86948    
    180.00      0.87250    
    182.00      0.87552    
    184.00      0.87865    
    186.00      0.88182    
    188.00      0.88506    
    190.00      0.88820    
    192.00      0.89122    
    194.00      0.89413    
    196.00      0.89694    
    198.00      0.89966    
    200.00      0.90228    
    202.00      0.90481    
    204.00      0.90725    
    206.00      0.90961    
    208.00      0.91189    
    210.00      0.91410    
    212.00      0.91623    
    214.00      0.91829    
    216.00      0.92029    
    218.00      0.92222    
    220.00      0.92407    
    222.00      0.92586    
    224.00      0.92757    
    226.00      0.92923    
    228.00      0.93083    
    230.00      0.93239    
    232.00      0.93390    
    234.00      0.93537    
    236.00      0.93679    
    238.00      0.93816    
    240.00      0.93947    
    242.00      0.94070    
    244.00      0.94190    
    246.00      0.94309    
    248.00      0.94428    
    250.00      0.94553    
    252.00      0.94675    
    254.00      0.94792    
    256.00      0.94907    
    258.00      0.95018    
    260.00      0.95126    
    262.00      0.95230    
    264.00      0.95332    
    266.00      0.95431    
    268.00      0.95526    
    270.00      0.95620    
    272.00      0.95710    
    274.00      0.95798    
    276.00      0.95884    
    278.00      0.95968    
    280.00      0.96049    
    282.00      0.96129    
    284.00      0.96206    
    286.00      0.59220    
    288.00      0.59701    
    290.00      0.60175    
    292.00      0.60642    
    294.00      0.61102    
    296.00      0.61556    
    298.00      0.62003    
    300.00      0.62443    
    302.00      0.62878    
    304.00      0.63306    
    306.00      0.63728    
    308.00      0.64143    
    310.00      0.64553    
    312.00      0.64957    
    314.00      0.65356    
    316.00      0.65748    
    318.00      0.66136    
    320.00      0.66517    
    322.00      0.66894    
    324.00      0.67264    
    326.00      0.67630    
    328.00      0.67990    
    330.00      0.68345    
    332.00      0.68694    
    334.00      0.69039    
    336.00      0.69379    
    338.00      0.69714    
    340.00      0.70044    
    342.00      0.70370    
    344.00      0.70691    
    346.00      0.71007    
    348.00      0.71319    
    350.00      0.71626    
    352.00      0.71929    
    354.00      0.72228    
    356.00      0.72522    
    358.00      0.72813    
    360.00      0.73099    
    362.00      0.73382    
    364.00      0.73660    
    366.00      0.73934    
    368.00      0.74205    
    370.00      0.74472    
    372.00      0.74735    
    374.00      0.74995    
    376.00      0.75254    
    378.00      0.75523    
    380.00      0.75789    
    382.00      0.76052    
    384.00      0.76321    
    386.00      0.76586    
    388.00      0.76847    
    390.00      0.77104    
    392.00      0.77357    
    394.00      0.77607    
    396.00      0.77854    
    398.00      0.78096    
    400.00      0.78336    
    402.00      0.78571    
    404.00      0.78804    
    406.00      0.79033    
    408.00      0.79259    
    410.00      0.77058    
    412.00      0.77297    
    414.00      0.77533    
    416.00      0.77766    
    418.00      0.77995    
    420.00      0.78222    
    422.00      0.78446    
    424.00      0.78666    
    426.00      0.78884    
    428.00      0.79098    
    430.00      0.79310    
    432.00      0.79519    
    434.00      0.79725    
    436.00      0.79928    
    438.00      0.80129    
    440.00      0.80327    
    442.00      0.80523    
    444.00      0.80715    
    446.00      0.80906    
    448.00      0.81094    
    450.00      0.81279    
    452.00      0.81462    
    454.00      0.81642    
    456.00      0.81821    
    458.00      0.81997    
    460.00      0.82170    
    462.00      0.82342    
    464.00      0.82511    
    466.00      0.82678    
    468.00      0.82843    
    470.00      0.83006    
    472.00      0.83166    
    474.00      0.83325    
    476.00      0.83482    
    478.00      0.83637    
    480.00      0.83790    
    482.00      0.83941    
    484.00      0.84090    
    486.00      0.84237    
    488.00      0.84385    
    490.00      0.84531    
    492.00      0.84675    
    494.00      0.84818    
    496.00      0.84958    
    498.00      0.85097    
    500.00      0.85234    
    502.00      0.85370    
    504.00      0.85503    
    506.00      0.85636    
    508.00      0.85766    
    510.00      0.85895    
    512.00      0.86022    
    514.00      0.86148    
    516.00      0.86272    
    518.00      0.86395    
    520.00      0.86516    
    522.00      0.86636    
    524.00      0.86755    
    526.00      0.86872    
    528.00      0.86987    
    530.00      0.87101    
    532.00      0.87214    
    534.00      0.87326    
    536.00      0.87436    
    538.00      0.87545    
    540.00      0.87653    
    542.00      0.87759    
    544.00      0.82716    
    546.00      0.82859    
    548.00      0.83000    
    550.00      0.83139    
    552.00      0.83278    
    554.00      0.83414    
    556.00      0.83549    
    558.00      0.83683    
    560.00      0.83815    
    562.00      0.83946    
    564.00      0.84076    
    566.00      0.84205    
    568.00      0.84332    
    570.00      0.84458    
    572.00      0.84582    
    574.00      0.84704    
    576.00      0.84826    
    578.00      0.84946    
    580.00      0.85065    
    582.00      0.85183    
    584.00      0.85299    
    586.00      0.85414    
    588.00      0.85528    
    590.00      0.85640    
    592.00      0.85751    
    594.00      0.85862    
    596.00      0.85971    
    598.00      0.86079    
    600.00      0.86185    
    602.00      0.86291    
    604.00      0.86396    
    606.00      0.86499    
    608.00      0.86602    
    610.00      0.86703    
    612.00      0.86803    
    614.00      0.86903    
    616.00      0.87001    
    618.00      0.87098    
    620.00      0.87195    
    622.00      0.87290    
    624.00      0.87385    
    626.00      0.87478    
    628.00      0.87571    
    630.00      0.87663    
    632.00      0.87755    
    634.00      0.87846    
    636.00      0.87935    
    638.00      0.88024    
    640.00      0.88113    
    642.00      0.88201    
    644.00      0.88288    
    646.00      0.88375    
    648.00      0.88460    
    650.00      0.88546    
    652.00      0.88630    
    654.00      0.88714    
    656.00      0.88797    
    658.00      0.88879    
    660.00      0.88960    
    662.00      0.89040    
    664.00      0.89120    
    666.00      0.89199    
    668.00      0.89277    
    670.00      0.89353    
    672.00      0.89427    
    674.00      0.89500    
    676.00      0.89572    
    678.00      0.89644    
    680.00      0.89715    
    682.00      0.89783    
    684.00      0.89851    
    686.00      0.89918    
    688.00      0.89984    
    690.00      0.90049    
    692.00      0.90114    
    694.00      0.90178    
    696.00      0.90241    
    698.00      0.90304    
    700.00      0.90366    
    702.00      0.90428    
    704.00      0.90492    
    706.00      0.90557    
    708.00      0.90621    
    710.00      0.90684    
    712.00      0.90747    
    714.00      0.90810    
    716.00      0.90874    
    718.00      0.90938    
    720.00      0.91001    
    722.00      0.91064    
    724.00      0.91126    
    726.00      0.91187    
    728.00      0.91248    
    730.00      0.91308    
    732.00      0.91368    
    734.00      0.91427    
    736.00      0.91486    
    738.00      0.91544    
    740.00      0.91601    
    742.00      0.91658    
    744.00      0.91715    
    746.00      0.91771    
    748.00      0.91826    
    750.00      0.91881    
